12.986
16.696
29.682
53.798
87.19
120.582
144.698
163.249
178.09
187.365
191.075
200.351
215.192
226.322
239.308
256.004
268.99
281.975
294.961
300.526
307.947
319.077
322.787
320.932
320.932
320.932
313.512
302.381
287.541
268.99
246.728
226.322
202.206
174.379
146.553
116.871
87.19
57.508
29.682
0
-29.682
-53.798
-76.059
-102.031
-128.002
-146.553
-165.104
-183.655
-198.496
-218.902
-235.598
-244.873
-254.149
-265.279
-274.555
-283.83
-293.106
-296.816
-300.526
-306.092
-311.657
-315.367
-315.367
-317.222
-320.932
-320.932
-322.787
-324.643
-322.787
-324.643
-326.498
-326.498
-326.498
-330.208
-328.353
-324.643
-328.353
-330.208
-330.208
-330.208
-328.353
-326.498
-324.643
-324.643
-324.643
-326.498
-328.353
-324.643
-324.643
-326.498
-326.498
-320.932
-320.932
-320.932
-319.077
-317.222
-315.367
-315.367
-315.367
-313.512
-311.657
-306.092
-306.092
-307.947
-306.092
-302.381
-302.381
-302.381
-300.526
-298.671
-298.671
-294.961
-291.251
-293.106
-293.106
-291.251
-291.251
-289.396
-285.685
-285.685
-285.685
-280.12
-281.975
-281.975
-278.265
-276.41
-276.41
-276.41
-274.555
-274.555
-274.555
-270.845
-268.99
-270.845
-272.7
-270.845
-267.134
-268.99
-268.99
-270.845
-272.7
-270.845
-270.845
-272.7
-270.845
-267.134
-265.279
-265.279
-265.279
-267.134
-267.134
-263.424
-261.569
-265.279
-267.134
-267.134
-267.134
-268.99
-270.845
-272.7
-272.7
-270.845
-270.845
-270.845
-270.845
-268.99
-268.99
-268.99
-268.99
-268.99
-267.134
-265.279
-263.424
-267.134
-267.134
-267.134
-268.99
-268.99
-267.134
-267.134
-268.99
-267.134
-265.279
-267.134
-267.134
-265.279
-261.569
-261.569
-261.569
-263.424
-265.279
-261.569
-259.714
-261.569
-259.714
-256.004
-259.714
-259.714
-254.149
-252.294
-254.149
-252.294
-252.294
-254.149
-250.439
-246.728
-246.728
-246.728
-248.583
-250.439
-250.439
-248.583
-244.873
-244.873
-246.728
-248.583
-250.439
-244.873
-243.018
-244.873
-243.018
-239.308
-241.163
-241.163
-237.453
-235.598
-237.453
-239.308
-239.308
-237.453
-235.598
-235.598
-233.743
-233.743
-233.743
-230.032
-226.322
-226.322
-224.467
-226.322
-226.322
-222.612
-222.612
-226.322
-224.467
-220.757
-222.612
-224.467
-224.467
-226.322
-222.612
-217.047
-218.902
-222.612
-220.757
-218.902
-217.047
-213.337
-213.337
-217.047
-213.337
-207.771
-205.916
-209.626
-209.626
-205.916
-207.771
-207.771
-207.771
-207.771
-207.771
-202.206
-202.206
-204.061
-204.061
-204.061
-200.351
-198.496
-200.351
-202.206
-202.206
-202.206
-202.206
-202.206
-202.206
-200.351
-200.351
-198.496
-196.641
-198.496
-196.641
-194.786
-194.786
-194.786
-192.93
-189.22
-191.075
-191.075
-192.93
-194.786
-191.075
-187.365
-187.365
-191.075
-189.22
-189.22
-191.075
-191.075
-191.075
-191.075
-187.365
-183.655
-185.51
-187.365
-185.51
-185.51
-183.655
-179.945
-179.945
-183.655
-181.8
-178.09
-179.945
-179.945
-178.09
-176.235
-176.235
-172.524
-168.814
-165.104
-157.684
-150.263
-146.553
-140.988
-133.567
-126.147
-118.726
-111.306
-103.886
-103.886
-103.886
-100.175
-98.32
-98.32
-92.755
-89.045
-85.335
-76.059
-64.929
-53.798
-40.812
-24.116
-16.696
-12.986
-9.276
-12.986
-20.406
-25.971
-35.247
-51.943
-64.929
-77.914
-90.9
-102.031
-111.306
-118.726
-126.147
-131.712
-137.277
-148.408
-155.828
-157.684
-161.394
-166.959
-172.524
-174.379
-176.235
-179.945
-183.655
-187.365
-187.365
-183.655
-185.51
-189.22
-191.075
-191.075
-189.22
-189.22
-192.93
-194.786
-194.786
-187.365
-185.51
-185.51
-183.655
-181.8
-179.945
-178.09
-181.8
-191.075
-204.061
-222.612
-244.873
-263.424
-274.555
-280.12
-285.685
-272.7
-233.743
-155.828
-35.247
118.726
313.512
541.689
793.983
1059.262
1315.266
1534.168
1689.996
1764.2
1756.78
1667.735
1493.356
1252.193
981.348
706.793
454.5
231.888
46.378
-90.9
-166.959
-194.786
-189.22
-163.249
-128.002
-102.031
-92.755
-94.61
-102.031
-111.306
-115.016
-120.582
-131.712
-139.133
-137.277
-139.133
-142.843
-150.263
-155.828
-159.539
-159.539
-157.684
-155.828
-153.973
-150.263
-148.408
-148.408
-146.553
-142.843
-139.133
-133.567
-129.857
-129.857
-128.002
-124.292
-122.437
-120.582
-116.871
-116.871
-116.871
-113.161
-109.451
-109.451
-109.451
-103.886
-100.175
-98.32
-92.755
-89.045
-87.19
-79.769
-76.059
-74.204
-72.349
-70.494
-66.784
-61.218
-59.363
-57.508
-55.653
-50.088
-42.667
-40.812
-38.957
-31.537
-24.116
-20.406
-12.986
-11.131
-7.42
3.71
11.131
14.841
18.551
25.971
33.392
40.812
50.088
55.653
61.218
72.349
85.335
90.9
98.32
111.306
122.437
131.712
140.988
152.118
163.249
176.235
189.22
200.351
213.337
228.177
241.163
252.294
265.279
278.265
289.396
304.236
319.077
328.353
339.483
352.469
363.6
376.585
389.571
400.702
409.977
419.253
430.383
437.804
441.514
447.079
445.224
441.514
435.949
424.818
413.687
396.991
376.585
350.614
326.498
300.526
272.7
241.163
211.481
179.945
150.263
128.002
102.031
74.204
48.233
27.827
5.565
-16.696
-38.957
-59.363
-76.059
-90.9
-103.886
-122.437
-135.422
-146.553
-159.539
-168.814
-174.379
-183.655
-189.22
-192.93
-196.641
-207.771
-213.337
-213.337
-215.192
-215.192
-220.757
-224.467
-224.467
-226.322
-226.322
-226.322
-228.177
-226.322
-224.467
-226.322
-226.322
-228.177
-230.032
-226.322
-226.322
-230.032
-233.743
-231.888
-230.032
-231.888
-233.743
-235.598
-237.453
-231.888
-230.032
-231.888
-233.743
-230.032
-226.322
-226.322
-224.467
-224.467
-222.612
-217.047
-215.192
-215.192
-215.192
-213.337
-213.337
-211.481
-211.481
-211.481
-211.481
-207.771
-205.916
-209.626
-209.626
-209.626
-207.771
-205.916
-207.771
-209.626
-207.771
-205.916
-202.206
-204.061
-202.206
-198.496
-198.496
-198.496
-198.496
-200.351
-200.351
-198.496
-200.351
-202.206
-198.496
-196.641
-196.641
-198.496
-198.496
-196.641
-200.351
-198.496
-196.641
-198.496
-200.351
-204.061
-205.916
-204.061
-202.206
-204.061
-205.916
-200.351
-198.496
-202.206
-200.351
-198.496
-198.496
-198.496
-194.786
-196.641
-198.496
-194.786
-192.93
-198.496
-200.351
-196.641
-194.786
-196.641
-196.641
-198.496
-200.351
-196.641
-194.786
-198.496
-198.496
-196.641
-196.641
-198.496
-200.351
-202.206
-202.206
-196.641
-194.786
-198.496
-198.496
-194.786
-194.786
-196.641
-196.641
-194.786
-192.93
-189.22
-189.22
-192.93
-191.075
-187.365
-187.365
-187.365
-187.365
-191.075
-192.93
-189.22
-189.22
-191.075
-191.075
-187.365
-187.365
-187.365
-187.365
-187.365
-187.365
-183.655
-185.51
-189.22
-187.365
-185.51
-187.365
-187.365
-185.51
-187.365
-187.365
-185.51
-181.8
-183.655
-181.8
-179.945
-179.945
-179.945
-181.8
-181.8
-179.945
-178.09
-179.945
-179.945
-176.235
-174.379
-174.379
-176.235
-176.235
-178.09
-176.235
-170.669
-170.669
-176.235
-176.235
-172.524
-170.669
-168.814
-168.814
-168.814
-168.814
-165.104
-165.104
-166.959
-168.814
-166.959
-165.104
-165.104
-168.814
-170.669
-166.959
-161.394
-161.394
-166.959
-163.249
-161.394
-159.539
-157.684
-157.684
-157.684
-157.684
-155.828
-157.684
-159.539
-157.684
-153.973
-153.973
-153.973
-153.973
-155.828
-152.118
-146.553
-148.408
-150.263
-148.408
-148.408
-150.263
-150.263
-148.408
-148.408
-150.263
-148.408
-148.408
-146.553
-142.843
-140.988
-142.843
-144.698
-144.698
-142.843
-144.698
-140.988
-142.843
-146.553
-146.553
-144.698
-142.843
-142.843
-140.988
-144.698
-140.988
-135.422
-135.422
-137.277
-133.567
-131.712
-131.712
-131.712
-131.712
-133.567
-131.712
-129.857
-129.857
-129.857
-129.857
-129.857
-131.712
-128.002
-124.292
-122.437
-118.726
-109.451
-103.886
-98.32
-89.045
-81.624
-76.059
-70.494
-66.784
-64.929
-63.073
-63.073
-64.929
-64.929
-59.363
-55.653
-51.943
-44.522
-31.537
-20.406
-5.565
9.276
22.261
24.116
22.261
18.551
12.986
9.276
0
-16.696
-33.392
-44.522
-55.653
-66.784
-76.059
-83.48
-94.61
-102.031
-109.451
-118.726
-124.292
-129.857
-137.277
-142.843
-146.553
-148.408
-153.973
-157.684
-161.394
-165.104
-165.104
-163.249
-165.104
-168.814
-168.814
-165.104
-163.249
-163.249
-163.249
-165.104
-163.249
-159.539
-159.539
-159.539
-157.684
-153.973
-152.118
-152.118
-157.684
-168.814
-183.655
-202.206
-222.612
-243.018
-252.294
-256.004
-259.714
-244.873
-198.496
-115.016
9.276
176.235
380.296
608.473
858.911
1122.336
1369.064
1576.835
1719.678
1777.186
1754.925
1652.894
1469.239
1224.366
955.377
686.387
435.949
222.612
50.088
-77.914
-153.973
-174.379
-165.104
-139.133
-103.886
-83.48
-77.914
-77.914
-83.48
-92.755
-94.61
-96.465
-102.031
-107.596
-111.306
-111.306
-113.161
-116.871
-122.437
-128.002
-126.147
-124.292
-126.147
-124.292
-118.726
-116.871
-115.016
-115.016
-113.161
-113.161
-109.451
-103.886
-105.741
-103.886
-98.32
-96.465
-94.61
-92.755
-89.045
-87.19
-83.48
-83.48
-85.335
-85.335
-79.769
-72.349
-70.494
-70.494
-70.494
-63.073
-57.508
-51.943
-50.088
-48.233
-42.667
-38.957
-37.102
-35.247
-29.682
-24.116
-18.551
-11.131
-7.42
-3.71
3.71
9.276
16.696
24.116
29.682
31.537
38.957
44.522
48.233
51.943
61.218
70.494
76.059
79.769
85.335
94.61
105.741
116.871
126.147
135.422
144.698
155.828
166.959
178.09
189.22
198.496
211.481
226.322
237.453
248.583
263.424
276.41
287.541
300.526
315.367
326.498
341.338
356.179
363.6
374.73
391.426
406.267
413.687
426.673
437.804
445.224
454.5
467.485
469.34
469.34
471.195
474.906
469.34
460.065
448.934
435.949
422.963
404.412
380.296
354.324
328.353
298.671
267.134
237.453
205.916
174.379
146.553
118.726
90.9
64.929
42.667
22.261
0
-20.406
-42.667
-63.073
-76.059
-90.9
-105.741
-118.726
-129.857
-142.843
-152.118
-159.539
-168.814
-174.379
-174.379
-179.945
-187.365
-194.786
-196.641
-200.351
-202.206
-205.916
-209.626
-213.337
-213.337
-215.192
-217.047
-220.757
-222.612
-222.612
-224.467
-224.467
-228.177
-231.888
-231.888
-228.177
-230.032
-235.598
-233.743
-231.888
-233.743
-233.743
-233.743
-233.743
-233.743
-231.888
-231.888
-230.032
-228.177
-228.177
-224.467
-222.612
-226.322
-226.322
-222.612
-224.467
-226.322
-226.322
-226.322
-226.322
-226.322
-226.322
-230.032
-233.743
-230.032
-228.177
-228.177
-228.177
-228.177
-228.177
-226.322
-226.322
-226.322
-224.467
-220.757
-220.757
-222.612
-222.612
-218.902
-217.047
-217.047
-217.047
-217.047
-218.902
-217.047
-213.337
-213.337
-215.192
-215.192
-215.192
-217.047
-215.192
-217.047
-218.902
-218.902
-220.757
-222.612
-220.757
-222.612
-222.612
-222.612
-222.612
-224.467
-224.467
-222.612
-220.757
-224.467
-226.322
-226.322
-224.467
-224.467
-224.467
-226.322
-228.177
-226.322
-222.612
-224.467
-226.322
-226.322
-230.032
-230.032
-230.032
-233.743
-233.743
-231.888
-231.888
-233.743
-231.888
-228.177
-228.177
-228.177
-226.322
-226.322
-226.322
-222.612
-220.757
-224.467
-228.177
-224.467
-220.757
-220.757
-222.612
-222.612
-222.612
-217.047
-215.192
-218.902
-217.047
-213.337
-215.192
-215.192
-213.337
-213.337
-213.337
-213.337
-211.481
-211.481
-213.337
-211.481
-211.481
-213.337
-211.481
-213.337
-213.337
-209.626
-207.771
-207.771
-205.916
-204.061
-205.916
-205.916
-202.206
-204.061
-205.916
-205.916
-204.061
-205.916
-205.916
-205.916
-207.771
-207.771
-205.916
-204.061
-204.061
-204.061
-200.351
-200.351
-198.496
-196.641
-194.786
-196.641
-196.641
-196.641
-194.786
-191.075
-191.075
-194.786
-194.786
-192.93
-191.075
-189.22
-187.365
-189.22
-189.22
-185.51
-183.655
-187.365
-185.51
-183.655
-181.8
-179.945
-181.8
-185.51
-185.51
-179.945
-176.235
-176.235
-176.235
-174.379
-172.524
-170.669
-168.814
-170.669
-170.669
-168.814
-170.669
-172.524
-172.524
-170.669
-170.669
-170.669
-170.669
-170.669
-168.814
-163.249
-161.394
-165.104
-166.959
-165.104
-161.394
-161.394
-159.539
-161.394
-163.249
-159.539
-155.828
-157.684
-157.684
-155.828
-155.828
-153.973
-152.118
-157.684
-159.539
-155.828
-152.118
-150.263
-152.118
-153.973
-153.973
-150.263
-150.263
-152.118
-152.118
-150.263
-148.408
-146.553
-144.698
-142.843
-139.133
-135.422
-131.712
-128.002
-120.582
-109.451
-103.886
-98.32
-90.9
-81.624
-77.914
-76.059
-76.059
-76.059
-74.204
-66.784
-64.929
-63.073
-55.653
-44.522
-35.247
-22.261
-3.71
9.276
16.696
18.551
14.841
7.42
5.565
3.71
-9.276
-22.261
-37.102
-51.943
-63.073
-66.784
-72.349
-83.48
-90.9
-96.465
-103.886
-113.161
-120.582
-126.147
-133.567
-135.422
-137.277
-144.698
-150.263
-152.118
-155.828
-157.684
-155.828
-155.828
-155.828
-153.973
-152.118
-152.118
-150.263
-148.408
-148.408
-148.408
-148.408
-148.408
-144.698
-140.988
-140.988
-142.843
-140.988
-137.277
-142.843
-155.828
-172.524
-194.786
-215.192
-228.177
-233.743
-239.308
-235.598
-207.771
-150.263
-51.943
85.335
261.569
476.761
719.779
973.928
1231.786
1471.094
1662.17
1775.331
1805.012
1754.925
1621.357
1409.876
1153.872
879.317
614.038
378.44
178.09
18.551
-89.045
-142.843
-157.684
-135.422
-96.465
-68.639
-53.798
-51.943
-53.798
-61.218
-66.784
-72.349
-77.914
-77.914
-77.914
-85.335
-90.9
-90.9
-92.755
-100.175
-102.031
-103.886
-103.886
-103.886
-100.175
-96.465
-96.465
-94.61
-90.9
-89.045
-83.48
-79.769
-79.769
-79.769
-74.204
-70.494
-68.639
-64.929
-61.218
-57.508
-53.798
-50.088
-50.088
-46.378
-38.957
-35.247
-35.247
-31.537
-25.971
-22.261
-18.551
-14.841
-12.986
-7.42
-1.855
1.855
5.565
12.986
18.551
18.551
22.261
29.682
35.247
40.812
46.378
51.943
55.653
64.929
72.349
79.769
85.335
90.9
98.32
103.886
113.161
122.437
129.857
135.422
142.843
150.263
159.539
170.669
179.945
191.075
204.061
211.481
220.757
235.598
248.583
257.859
267.134
278.265
291.251
304.236
319.077
332.063
343.194
356.179
369.165
382.151
396.991
409.977
422.963
437.804
452.644
465.63
474.906
487.891
499.022
512.008
523.138
532.414
536.124
539.834
543.544
543.544
543.544
537.979
526.848
515.718
500.877
480.471
460.065
439.659
415.542
385.861
354.324
326.498
296.816
270.845
243.018
211.481
181.8
157.684
137.277
113.161
87.19
68.639
51.943
33.392
18.551
3.71
-12.986
-25.971
-35.247
-42.667
-53.798
-63.073
-72.349
-81.624
-85.335
-90.9
-100.175
-103.886
-102.031
-107.596
-111.306
-113.161
-113.161
-115.016
-116.871
-118.726
-122.437
-122.437
-122.437
-128.002
-128.002
-126.147
-124.292
-128.002
-128.002
-128.002
-128.002
-126.147
-122.437
-124.292
-124.292
-122.437
-124.292
-126.147
-122.437
-120.582
-122.437
-122.437
-118.726
-118.726
-118.726
-115.016
-111.306
-113.161
-113.161
-111.306
-109.451
-109.451
-107.596
-107.596
-111.306
-111.306
-107.596
-105.741
-103.886
-102.031
-102.031
-96.465
-92.755
-90.9
-89.045
-87.19
-85.335
-83.48
-81.624
-81.624
-83.48
-83.48
-81.624
-83.48
-83.48
-81.624
-83.48
-83.48
-81.624
-81.624
-83.48
-79.769
-74.204
-76.059
-76.059
-74.204
-74.204
-76.059
-77.914
-77.914
-77.914
-74.204
-74.204
-76.059
-76.059
-72.349
-68.639
-72.349
-72.349
-76.059
-79.769
-76.059
-72.349
-74.204
-77.914
-76.059
-76.059
-74.204
-70.494
-70.494
-74.204
-74.204
-72.349
-74.204
-76.059
-72.349
-74.204
-76.059
-74.204
-72.349
-72.349
-70.494
-68.639
-70.494
-70.494
-68.639
-66.784
-66.784
-64.929
-64.929
-64.929
-63.073
-61.218
-61.218
-61.218
-59.363
-59.363
-59.363
-57.508
-57.508
-59.363
-55.653
-50.088
-51.943
-55.653
-51.943
-53.798
-55.653
-53.798
-53.798
-53.798
-51.943
-50.088
-51.943
-50.088
-48.233
-46.378
-44.522
-44.522
-44.522
-44.522
-40.812
-40.812
-42.667
-44.522
-42.667
-42.667
-42.667
-40.812
-42.667
-44.522
-42.667
-38.957
-40.812
-42.667
-40.812
-42.667
-42.667
-44.522
-46.378
-46.378
-42.667
-38.957
-42.667
-44.522
-40.812
-37.102
-37.102
-37.102
-38.957
-38.957
-37.102
-35.247
-35.247
-37.102
-37.102
-37.102
-35.247
-35.247
-37.102
-38.957
-33.392
-31.537
-33.392
-33.392
-29.682
-29.682
-31.537
-27.827
-25.971
-25.971
-24.116
-22.261
-25.971
-24.116
-18.551
-16.696
-18.551
-16.696
-16.696
-16.696
-12.986
-9.276
-11.131
-12.986
-9.276
-9.276
-9.276
-7.42
-7.42
-9.276
-5.565
-1.855
-5.565
-5.565
-1.855
0
1.855
3.71
5.565
5.565
7.42
7.42
5.565
7.42
11.131
12.986
11.131
12.986
12.986
12.986
16.696
22.261
24.116
25.971
31.537
33.392
37.102
46.378
51.943
57.508
66.784
76.059
77.914
79.769
83.48
87.19
89.045
92.755
94.61
94.61
100.175
109.451
120.582
137.277
153.973
165.104
170.669
178.09
179.945
176.235
172.524
166.959
153.973
140.988
128.002
113.161
100.175
92.755
85.335
77.914
70.494
64.929
59.363
51.943
42.667
35.247
29.682
25.971
20.406
11.131
5.565
5.565
1.855
-3.71
-5.565
-5.565
-3.71
-3.71
-5.565
-5.565
-3.71
-3.71
-5.565
-7.42
0
1.855
1.855
1.855
3.71
5.565
11.131
12.986
3.71
-11.131
-29.682
-51.943
-72.349
-87.19
-94.61
-94.61
-87.19
-61.218
0
105.741
254.149
437.804
652.995
897.868
1155.727
1413.586
1649.184
1832.839
1936.724
1957.131
1899.622
1760.49
1541.588
1280.019
1005.464
742.04
510.153
313.512
159.539
55.653
9.276
3.71
24.116
57.508
83.48
96.465
102.031
100.175
92.755
89.045
85.335
77.914
74.204
74.204
72.349
68.639
68.639
64.929
57.508
53.798
53.798
55.653
55.653
55.653
53.798
57.508
64.929
68.639
66.784
68.639
74.204
76.059
77.914
79.769
79.769
81.624
89.045
90.9
90.9
96.465
102.031
103.886
105.741
109.451
111.306
111.306
116.871
122.437
120.582
122.437
128.002
129.857
131.712
137.277
139.133
140.988
148.408
152.118
153.973
157.684
163.249
166.959
172.524
176.235
178.09
181.8
187.365
191.075
194.786
200.351
205.916
209.626
215.192
222.612
228.177
237.453
246.728
256.004
263.424
272.7
283.83
293.106
300.526
311.657
322.787
330.208
341.338
350.614
359.889
372.875
385.861
396.991
406.267
417.398
428.528
443.369
460.065
473.051
484.181
497.167
510.153
523.138
534.269
543.544
554.675
567.661
580.646
591.777
599.197
606.618
615.893
625.169
632.589
634.444
630.734
628.879
628.879
617.748
599.197
584.357
565.806
545.399
523.138
493.457
463.775
435.949
408.122
380.296
348.759
320.932
293.106
265.279
239.308
213.337
187.365
166.959
150.263
129.857
109.451
92.755
77.914
63.073
50.088
37.102
24.116
14.841
7.42
-1.855
-12.986
-16.696
-18.551
-24.116
-29.682
-35.247
-37.102
-38.957
-38.957
-40.812
-46.378
-50.088
-50.088
-51.943
-55.653
-59.363
-61.218
-59.363
-55.653
-57.508
-59.363
-59.363
-57.508
-57.508
-57.508
-55.653
-57.508
-59.363
-59.363
-59.363
-59.363
-57.508
-57.508
-57.508
-57.508
-59.363
-57.508
-55.653
-50.088
-51.943
-53.798
-51.943
-48.233
-48.233
-44.522
-42.667
-44.522
-44.522
-42.667
-44.522
-44.522
-42.667
-40.812
-44.522
-44.522
-42.667
-44.522
-46.378
-46.378
-44.522
-44.522
-42.667
-38.957
-40.812
-44.522
-44.522
-44.522
-44.522
-42.667
-42.667
-44.522
-42.667
-40.812
-44.522
-42.667
-42.667
-46.378
-44.522
-42.667
-44.522
-50.088
-51.943
-51.943
-51.943
-53.798
-53.798
-53.798
-55.653
-55.653
-55.653
-57.508
-57.508
-57.508
-59.363
-61.218
-61.218
-61.218
-61.218
-57.508
-59.363
-63.073
-61.218
-61.218
-64.929
-63.073
-61.218
-64.929
-66.784
-64.929
-66.784
-68.639
-64.929
-63.073
-64.929
-66.784
-68.639
-72.349
-70.494
-68.639
-66.784
-70.494
-72.349
-72.349
-70.494
-72.349
-76.059
-77.914
-76.059
-72.349
-74.204
-79.769
-76.059
-74.204
-74.204
-74.204
-76.059
-77.914
-76.059
-72.349
-74.204
-79.769
-79.769
-76.059
-76.059
-76.059
-79.769
-81.624
-79.769
-76.059
-77.914
-79.769
-77.914
-76.059
-77.914
-79.769
-79.769
-81.624
-83.48
-81.624
-83.48
-83.48
-81.624
-83.48
-83.48
-81.624
-81.624
-83.48
-81.624
-79.769
-81.624
-85.335
-81.624
-81.624
-81.624
-79.769
-77.914
-79.769
-77.914
-77.914
-77.914
-77.914
-76.059
-77.914
-79.769
-79.769
-83.48
-85.335
-85.335
-83.48
-85.335
-87.19
-85.335
-85.335
-85.335
-83.48
-85.335
-85.335
-81.624
-79.769
-79.769
-81.624
-81.624
-77.914
-76.059
-76.059
-77.914
-79.769
-77.914
-76.059
-76.059
-79.769
-79.769
-79.769
-79.769
-81.624
-81.624
-83.48
-83.48
-79.769
-79.769
-81.624
-81.624
-81.624
-79.769
-81.624
-81.624
-79.769
-77.914
-76.059
-76.059
-74.204
-70.494
-64.929
-57.508
-55.653
-51.943
-50.088
-42.667
-33.392
-31.537
-31.537
-25.971
-24.116
-27.827
-25.971
-22.261
-20.406
-14.841
-9.276
-7.42
0
14.841
29.682
44.522
51.943
55.653
57.508
59.363
57.508
48.233
37.102
27.827
12.986
-3.71
-16.696
-27.827
-37.102
-42.667
-51.943
-64.929
-70.494
-70.494
-77.914
-87.19
-94.61
-102.031
-107.596
-111.306
-113.161
-120.582
-124.292
-124.292
-126.147
-129.857
-129.857
-129.857
-131.712
-129.857
-128.002
-129.857
-131.712
-129.857
-128.002
-128.002
-129.857
-129.857
-128.002
-122.437
-120.582
-122.437
-126.147
-129.857
-142.843
-165.104
-191.075
-209.626
-222.612
-226.322
-228.177
-224.467
-194.786
-124.292
-16.696
128.002
317.222
536.124
775.432
1038.856
1300.425
1526.747
1697.417
1795.737
1808.723
1740.084
1591.676
1367.209
1101.929
829.23
567.661
333.918
140.988
-3.71
-100.175
-146.553
-152.118
-129.857
-94.61
-66.784
-50.088
-48.233
-51.943
-55.653
-61.218
-70.494
-74.204
-77.914
-83.48
-85.335
-85.335
-90.9
-96.465
-100.175
-103.886
-102.031
-98.32
-98.32
-98.32
-96.465
-92.755
-92.755
-90.9
-89.045
-89.045
-87.19
-85.335
-85.335
-83.48
-81.624
-77.914
-76.059
-74.204
-68.639
-68.639
-68.639
-66.784
-64.929
-64.929
-59.363
-57.508
-59.363
-59.363
-55.653
-51.943
-50.088
-46.378
-42.667
-38.957
-31.537
-27.827
-25.971
-22.261
-18.551
-18.551
-14.841
-11.131
-11.131
-7.42
1.855
3.71
7.42
14.841
20.406
27.827
33.392
38.957
42.667
48.233
59.363
68.639
70.494
76.059
87.19
94.61
103.886
113.161
122.437
131.712
142.843
153.973
161.394
170.669
183.655
192.93
204.061
217.047
226.322
237.453
252.294
267.134
278.265
289.396
304.236
319.077
333.918
346.904
358.034
369.165
380.296
393.281
406.267
417.398
428.528
435.949
441.514
447.079
450.789
454.5
452.644
448.934
439.659
428.528
413.687
395.136
376.585
352.469
324.643
298.671
272.7
241.163
209.626
183.655
155.828
126.147
96.465
72.349
46.378
20.406
0
-20.406
-44.522
-63.073
-77.914
-96.465
-113.161
-128.002
-142.843
-153.973
-159.539
-166.959
-178.09
-183.655
-187.365
-192.93
-198.496
-200.351
-205.916
-209.626
-213.337
-217.047
-220.757
-222.612
-222.612
-226.322
-228.177
-228.177
-230.032
-231.888
-228.177
-230.032
-233.743
-233.743
-231.888
-231.888
-231.888
-233.743
-237.453
-233.743
-228.177
-230.032
-233.743
-231.888
-230.032
-230.032
-230.032
-231.888
-233.743
-230.032
-226.322
-226.322
-226.322
-226.322
-226.322
-222.612
-220.757
-220.757
-224.467
-222.612
-217.047
-217.047
-220.757
-222.612
-220.757
-218.902
-220.757
-218.902
-220.757
-222.612
-218.902
-217.047
-218.902
-218.902
-215.192
-215.192
-215.192
-215.192
-215.192
-215.192
-215.192
-215.192
-218.902
-218.902
-215.192
-217.047
-218.902
-218.902
-222.612
-220.757
-215.192
-215.192
-217.047
-218.902
-215.192
-215.192
-217.047
-217.047
-217.047
-218.902
-218.902
-220.757
-222.612
-220.757
-218.902
-220.757
-222.612
-222.612
-224.467
-224.467
-220.757
-220.757
-222.612
-224.467
-222.612
-224.467
-224.467
-226.322
-226.322
-224.467
-222.612
-224.467
-230.032
-230.032
-228.177
-228.177
-230.032
-231.888
-231.888
-233.743
-233.743
-231.888
-233.743
-237.453
-235.598
-235.598
-235.598
-235.598
-237.453
-235.598
-233.743
-235.598
-235.598
-235.598
-235.598
-237.453
-239.308
-237.453
-239.308
-241.163
-237.453
-235.598
-235.598
-235.598
-233.743
-235.598
-235.598
-235.598
-237.453
-239.308
-237.453
-237.453
-241.163
-243.018
-241.163
-239.308
-239.308
-239.308
-239.308
-239.308
-235.598
-235.598
-237.453
-237.453
-235.598
-237.453
-237.453
-237.453
-237.453
-235.598
-233.743
-233.743
-237.453
-235.598
-231.888
-231.888
-233.743
-235.598
-235.598
-233.743
-231.888
-231.888
-235.598
-235.598
-235.598
-235.598
-235.598
-237.453
-239.308
-239.308
-235.598
-233.743
-233.743
-231.888
-228.177
-228.177
-228.177
-226.322
-230.032
-230.032
-228.177
-226.322
-228.177
-228.177
-228.177
-228.177
-230.032
-228.177
-228.177
-228.177
-228.177
-228.177
-230.032
-228.177
-224.467
-224.467
-224.467
-222.612
-222.612
-220.757
-217.047
-215.192
-215.192
-217.047
-217.047
-217.047
-215.192
-215.192
-215.192
-217.047
-213.337
-209.626
-207.771
-202.206
-198.496
-196.641
-192.93
-185.51
-178.09
-170.669
-161.394
-155.828
-150.263
-144.698
-140.988
-139.133
-137.277
-135.422
-133.567
-131.712
-126.147
-124.292
-118.726
-107.596
-94.61
-79.769
-66.784
-59.363
-57.508
-55.653
-59.363
-64.929
-72.349
-79.769
-90.9
-107.596
-120.582
-135.422
-146.553
-150.263
-155.828
-163.249
-170.669
-176.235
-181.8
-191.075
-196.641
-200.351
-204.061
-207.771
-211.481
-220.757
-228.177
-230.032
-231.888
-231.888
-231.888
-235.598
-239.308
-237.453
-231.888
-231.888
-235.598
-233.743
-230.032
-230.032
-230.032
-228.177
-230.032
-228.177
-224.467
-224.467
-224.467
-224.467
-230.032
-244.873
-267.134
-291.251
-309.802
-320.932
-326.498
-332.063
-326.498
-293.106
-224.467
-113.161
33.392
222.612
450.789
699.373
962.797
1220.656
1446.978
1619.502
1715.968
1723.388
1652.894
1497.066
1267.033
1001.754
727.199
463.775
233.743
44.522
-103.886
-200.351
-241.163
-243.018
-222.612
-185.51
-157.684
-146.553
-144.698
-144.698
-148.408
-157.684
-163.249
-166.959
-172.524
-176.235
-176.235
-179.945
-185.51
-187.365
-191.075
-196.641
-196.641
-194.786
-192.93
-191.075
-189.22
-189.22
-187.365
-181.8
-179.945
-178.09
-174.379
-172.524
-172.524
-168.814
-166.959
-163.249
-161.394
-159.539
-159.539
-157.684
-152.118
-153.973
-155.828
-148.408
-142.843
-144.698
-142.843
-135.422
-133.567
-129.857
-124.292
-122.437
-120.582
-116.871
-109.451
-107.596
-105.741
-102.031
-98.32
-94.61
-89.045
-83.48
-81.624
-74.204
-64.929
-59.363
-53.798
-46.378
-40.812
-35.247
-29.682
-22.261
-14.841
-5.565
1.855
7.42
14.841
25.971
35.247
44.522
53.798
63.073
68.639
79.769
90.9
100.175
107.596
120.582
133.567
142.843
153.973
163.249
176.235
194.786
211.481
220.757
231.888
248.583
265.279
280.12
293.106
304.236
317.222
332.063
346.904
354.324
363.6
376.585
389.571
398.847
406.267
411.832
415.542
422.963
424.818
415.542
408.122
398.847
384.006
365.455
341.338
317.222
289.396
265.279
237.453
202.206
170.669
144.698
115.016
87.19
61.218
35.247
11.131
-9.276
-33.392
-59.363
-77.914
-92.755
-107.596
-128.002
-144.698
-161.394
-170.669
-178.09
-187.365
-200.351
-207.771
-209.626
-215.192
-222.612
-224.467
-231.888
-235.598
-235.598
-237.453
-244.873
-248.583
-246.728
-244.873
-246.728
-248.583
-252.294
-250.439
-244.873
-243.018
-246.728
-250.439
-248.583
-248.583
-248.583
-250.439
-254.149
-252.294
-250.439
-248.583
-254.149
-252.294
-246.728
-246.728
-244.873
-244.873
-246.728
-248.583
-243.018
-239.308
-239.308
-239.308
-239.308
-237.453
-235.598
-235.598
-237.453
-235.598
-231.888
-230.032
-230.032
-231.888
-231.888
-233.743
-231.888
-226.322
-228.177
-230.032
-226.322
-222.612
-224.467
-222.612
-218.902
-217.047
-218.902
-215.192
-215.192
-213.337
-213.337
-213.337
-213.337
-211.481
-207.771
-207.771
-211.481
-209.626
-209.626
-209.626
-204.061
-202.206
-207.771
-207.771
-204.061
-200.351
-200.351
-198.496
-202.206
-204.061
-202.206
-200.351
-204.061
-204.061
-202.206
-204.061
-205.916
-205.916
-205.916
-205.916
-204.061
-202.206
-204.061
-204.061
-202.206
-198.496
-198.496
-198.496
-202.206
-200.351
-194.786
-194.786
-200.351
-200.351
-200.351
-204.061
-205.916
-207.771
-209.626
-211.481
-207.771
-205.916
-207.771
-207.771
-204.061
-202.206
-200.351
-200.351
-200.351
-200.351
-198.496
-198.496
-200.351
-202.206
-200.351
-202.206
-202.206
-202.206
-204.061
-202.206
-200.351
-200.351
-200.351
-200.351
-198.496
-194.786
-198.496
-198.496
-196.641
-196.641
-192.93
-192.93
-194.786
-192.93
-191.075
-191.075
-192.93
-192.93
-192.93
-192.93
-192.93
-191.075
-189.22
-189.22
-189.22
-191.075
-187.365
-183.655
-185.51
-187.365
-183.655
-179.945
-183.655
-183.655
-183.655
-183.655
-181.8
-179.945
-181.8
-183.655
-183.655
-183.655
-183.655
-179.945
-178.09
-179.945
-178.09
-178.09
-179.945
-178.09
-172.524
-172.524
-174.379
-170.669
-168.814
-168.814
-166.959
-166.959
-166.959
-166.959
-161.394
-161.394
-161.394
-159.539
-157.684
-161.394
-161.394
-157.684
-157.684
-157.684
-155.828
-157.684
-159.539
-155.828
-153.973
-152.118
-150.263
-150.263
-150.263
-148.408
-146.553
-146.553
-148.408
-146.553
-142.843
-144.698
-146.553
-142.843
-142.843
-144.698
-140.988
-137.277
-139.133
-142.843
-140.988
-139.133
-139.133
-139.133
-140.988
-139.133
-133.567
-135.422
-137.277
-135.422
-129.857
-126.147
-124.292
-120.582
-116.871
-111.306
-102.031
-94.61
-90.9
-83.48
-74.204
-70.494
-66.784
-64.929
-61.218
-57.508
-53.798
-51.943
-50.088
-44.522
-37.102
-29.682
-20.406
-7.42
1.855
14.841
27.827
31.537
25.971
24.116
20.406
12.986
3.71
-5.565
-22.261
-35.247
-42.667
-51.943
-61.218
-64.929
-72.349
-77.914
-81.624
-90.9
-102.031
-109.451
-111.306
-116.871
-122.437
-126.147
-129.857
-133.567
-135.422
-137.277
-139.133
-139.133
-137.277
-139.133
-139.133
-135.422
-135.422
-135.422
-135.422
-135.422
-137.277
-135.422
-131.712
-129.857
-129.857
-128.002
-124.292
-120.582
-118.726
-122.437
-133.567
-148.408
-166.959
-189.22
-205.916
-215.192
-220.757
-222.612
-207.771
-157.684
-66.784
63.073
233.743
443.369
678.967
938.681
1203.96
1450.688
1654.749
1788.316
1836.549
1803.157
1689.996
1495.211
1242.917
970.217
699.373
452.644
244.873
77.914
-40.812
-107.596
-126.147
-113.161
-85.335
-51.943
-29.682
-24.116
-27.827
-33.392
-40.812
-44.522
-46.378
-50.088
-57.508
-61.218
-61.218
-64.929
-70.494
-76.059
-79.769
-79.769
-76.059
-76.059
-77.914
-72.349
-68.639
-66.784
-64.929
-64.929
-64.929
-61.218
-53.798
-51.943
-53.798
-48.233
-44.522
-44.522
-40.812
-37.102
-35.247
-33.392
-27.827
-24.116
-25.971
-24.116
-18.551
-12.986
-7.42
-3.71
-1.855
1.855
7.42
11.131
14.841
18.551
22.261
24.116
27.827
33.392
35.247
40.812
46.378
50.088
55.653
64.929
70.494
74.204
77.914
81.624
87.19
96.465
102.031
105.741
113.161
120.582
128.002
137.277
146.553
153.973
161.394
170.669
183.655
194.786
204.061
213.337
222.612
231.888
243.018
256.004
267.134
278.265
293.106
302.381
313.512
330.208
345.049
358.034
372.875
387.716
400.702
415.542
432.238
443.369
456.355
469.34
480.471
493.457
506.442
515.718
526.848
536.124
545.399
549.11
550.965
552.82
552.82
549.11
537.979
523.138
506.442
487.891
467.485
441.514
411.832
384.006
354.324
322.787
294.961
265.279
235.598
207.771
181.8
157.684
135.422
113.161
90.9
68.639
50.088
31.537
14.841
-1.855
-12.986
-25.971
-37.102
-48.233
-55.653
-64.929
-72.349
-77.914
-83.48
-87.19
-90.9
-96.465
-100.175
-103.886
-105.741
-107.596
-109.451
-113.161
-115.016
-116.871
-115.016
-118.726
-118.726
-116.871
-116.871
-118.726
-118.726
-116.871
-118.726
-118.726
-118.726
-120.582
-120.582
-116.871
-115.016
-116.871
-116.871
-116.871
-118.726
-115.016
-111.306
-111.306
-113.161
-113.161
-111.306
-109.451
-105.741
-102.031
-105.741
-103.886
-98.32
-96.465
-94.61
-90.9
-92.755
-94.61
-92.755
-90.9
-90.9
-89.045
-87.19
-87.19
-87.19
-85.335
-83.48
-83.48
-79.769
-77.914
-79.769
-76.059
-72.349
-74.204
-76.059
-74.204
-68.639
-68.639
-68.639
-70.494
-70.494
-68.639
-66.784
-66.784
-66.784
-64.929
-66.784
-68.639
-68.639
-68.639
-70.494
-70.494
-70.494
-70.494
-70.494
-70.494
-70.494
-68.639
-66.784
-70.494
-70.494
-66.784
-63.073
-64.929
-68.639
-66.784
-66.784
-68.639
-70.494
-70.494
-74.204
-74.204
-72.349
-76.059
-81.624
-81.624
-81.624
-81.624
-79.769
-79.769
-79.769
-79.769
-77.914
-81.624
-79.769
-74.204
-76.059
-77.914
-79.769
-81.624
-79.769
-77.914
-77.914
-81.624
-83.48
-77.914
-76.059
-77.914
-77.914
-77.914
-77.914
-72.349
-70.494
-72.349
-70.494
-68.639
-68.639
-70.494
-70.494
-70.494
-70.494
-68.639
-72.349
-74.204
-72.349
-70.494
-70.494
-68.639
-70.494
-72.349
-72.349
-68.639
-68.639
-70.494
-70.494
-66.784
-66.784
-66.784
-66.784
-68.639
-68.639
-64.929
-64.929
-64.929
-64.929
-64.929
-68.639
-68.639
-64.929
-66.784
-68.639
-63.073
-61.218
-64.929
-66.784
-64.929
-63.073
-61.218
-61.218
-63.073
-64.929
-59.363
-53.798
-55.653
-55.653
-53.798
-53.798
-53.798
-51.943
-50.088
-50.088
-50.088
-50.088
-51.943
-50.088
-48.233
-50.088
-50.088
-50.088
-51.943
-51.943
-48.233
-48.233
-50.088
-48.233
-46.378
-44.522
-44.522
-44.522
-46.378
-46.378
-40.812
-40.812
-44.522
-44.522
-40.812
-38.957
-38.957
-40.812
-38.957
-37.102
-33.392
-35.247
-38.957
-37.102
-31.537
-31.537
-33.392
-33.392
-37.102
-37.102
-33.392
-31.537
-35.247
-35.247
-33.392
-31.537
-31.537
-31.537
-29.682
-29.682
-25.971
-24.116
-27.827
-29.682
-27.827
-27.827
-29.682
-29.682
-31.537
-29.682
-25.971
-24.116
-22.261
-20.406
-18.551
-14.841
-9.276
-5.565
-1.855
5.565
14.841
22.261
24.116
31.537
38.957
42.667
46.378
46.378
46.378
48.233
50.088
51.943
51.943
59.363
68.639
77.914
90.9
103.886
115.016
124.292
126.147
124.292
118.726
116.871
111.306
100.175
89.045
76.059
63.073
50.088
42.667
35.247
25.971
18.551
16.696
5.565
-3.71
-9.276
-18.551
-24.116
-25.971
-29.682
-37.102
-38.957
-40.812
-44.522
-50.088
-53.798
-55.653
-55.653
-51.943
-50.088
-51.943
-51.943
-50.088
-48.233
-46.378
-44.522
-46.378
-46.378
-40.812
-38.957
-40.812
-37.102
-35.247
-35.247
-33.392
-38.957
-53.798
-70.494
-89.045
-111.306
-128.002
-133.567
-135.422
-129.857
-98.32
-33.392
68.639
213.337
404.412
627.024
870.042
1131.611
1393.18
1625.068
1803.157
1901.478
1910.753
1845.825
1699.272
1474.805
1205.815
931.26
671.546
437.804
241.163
92.755
-3.71
-50.088
-50.088
-24.116
7.42
33.392
48.233
48.233
42.667
37.102
27.827
18.551
12.986
7.42
1.855
-1.855
-3.71
-9.276
-12.986
-14.841
-16.696
-18.551
-16.696
-16.696
-14.841
-11.131
-9.276
-7.42
-7.42
-5.565
-3.71
-1.855
3.71
3.71
1.855
5.565
11.131
12.986
12.986
16.696
20.406
24.116
27.827
29.682
31.537
35.247
38.957
40.812
42.667
42.667
44.522
48.233
55.653
61.218
61.218
64.929
70.494
74.204
77.914
83.48
87.19
90.9
96.465
98.32
98.32
105.741
115.016
116.871
120.582
124.292
128.002
137.277
146.553
152.118
155.828
165.104
174.379
179.945
187.365
198.496
205.916
213.337
222.612
230.032
239.308
250.439
265.279
274.555
281.975
293.106
304.236
317.222
333.918
345.049
352.469
367.31
384.006
396.991
409.977
422.963
434.093
448.934
465.63
478.616
489.746
504.587
517.573
526.848
536.124
547.255
554.675
563.95
571.371
573.226
573.226
575.081
573.226
565.806
556.53
543.544
524.993
506.442
486.036
460.065
428.528
400.702
372.875
339.483
307.947
278.265
246.728
218.902
196.641
168.814
140.988
120.582
100.175
76.059
57.508
40.812
24.116
9.276
-1.855
-14.841
-27.827
-37.102
-44.522
-51.943
-61.218
-68.639
-76.059
-79.769
-83.48
-89.045
-94.61
-98.32
-100.175
-103.886
-105.741
-105.741
-105.741
-107.596
-107.596
-109.451
-111.306
-109.451
-111.306
-115.016
-111.306
-113.161
-118.726
-118.726
-115.016
-116.871
-118.726
-116.871
-116.871
-118.726
-118.726
-120.582
-118.726
-118.726
-116.871
-116.871
-118.726
-115.016
-113.161
-113.161
-111.306
-111.306
-111.306
-105.741
-103.886
-105.741
-107.596
-103.886
-102.031
-102.031
-103.886
-105.741
-105.741
-105.741
-105.741
-107.596
-107.596
-103.886
-105.741
-105.741
-102.031
-102.031
-102.031
-98.32
-98.32
-98.32
-98.32
-94.61
-94.61
-96.465
-96.465
-98.32
-100.175
-92.755
-89.045
-92.755
-98.32
-94.61
-92.755
-92.755
-94.61
-98.32
-96.465
-92.755
-92.755
-94.61
-96.465
-96.465
-98.32
-98.32
-98.32
-98.32
-102.031
-102.031
-102.031
-102.031
-102.031
-100.175
-100.175
-102.031
-102.031
-102.031
-105.741
-103.886
-100.175
-105.741
-107.596
-105.741
-107.596
-107.596
-107.596
-109.451
-109.451
-109.451
-109.451
-113.161
-115.016
-111.306
-111.306
-113.161
-111.306
-113.161
-115.016
-115.016
-113.161
-113.161
-111.306
-107.596
-109.451
-111.306
-111.306
-111.306
-109.451
-103.886
-103.886
-107.596
-109.451
-107.596
-105.741
-103.886
-103.886
-109.451
-113.161
-109.451
-107.596
-111.306
-113.161
-111.306
-111.306
-111.306
-109.451
-111.306
-111.306
-107.596
-102.031
-102.031
-103.886
-102.031
-103.886
-105.741
-103.886
-103.886
-105.741
-103.886
-102.031
-105.741
-105.741
-100.175
-100.175
-102.031
-102.031
-103.886
-105.741
-103.886
-105.741
-105.741
-107.596
-103.886
-105.741
-105.741
-102.031
-102.031
-102.031
-98.32
-96.465
-98.32
-98.32
-98.32
-98.32
-98.32
-98.32
-98.32
-102.031
-98.32
-96.465
-100.175
-102.031
-98.32
-98.32
-100.175
-98.32
-100.175
-102.031
-98.32
-100.175
-102.031
-102.031
-100.175
-100.175
-100.175
-100.175
-103.886
-102.031
-96.465
-92.755
-96.465
-98.32
-96.465
-96.465
-94.61
-94.61
-94.61
-96.465
-94.61
-94.61
-96.465
-92.755
-90.9
-92.755
-89.045
-87.19
-87.19
-87.19
-83.48
-81.624
-85.335
-85.335
-85.335
-85.335
-85.335
-87.19
-89.045
-90.9
-89.045
-85.335
-85.335
-83.48
-83.48
-83.48
-81.624
-79.769
-81.624
-81.624
-77.914
-77.914
-81.624
-79.769
-77.914
-77.914
-77.914
-74.204
-76.059
-76.059
-70.494
-63.073
-59.363
-55.653
-50.088
-44.522
-38.957
-31.537
-25.971
-16.696
-11.131
-11.131
-11.131
-9.276
-7.42
-5.565
-1.855
0
1.855
7.42
16.696
27.827
40.812
53.798
66.784
72.349
74.204
74.204
68.639
63.073
59.363
50.088
37.102
22.261
14.841
3.71
-7.42
-16.696
-24.116
-29.682
-33.392
-38.957
-48.233
-57.508
-63.073
-68.639
-74.204
-79.769
-89.045
-92.755
-94.61
-100.175
-109.451
-111.306
-107.596
-107.596
-107.596
-105.741
-107.596
-107.596
-103.886
-102.031
-103.886
-100.175
-98.32
-100.175
-100.175
-96.465
-94.61
-94.61
-90.9
-89.045
-90.9
-96.465
-109.451
-129.857
-152.118
-168.814
-185.51
-194.786
-198.496
-192.93
-168.814
-107.596
-5.565
133.567
315.367
534.269
777.287
1037.001
1302.28
1541.588
1725.243
1834.694
1860.665
1806.867
1669.59
1452.543
1185.409
908.999
645.575
411.832
209.626
51.943
-51.943
-103.886
-113.161
-92.755
-59.363
-27.827
-9.276
-9.276
-16.696
-18.551
-24.116
-35.247
-42.667
-48.233
-53.798
-59.363
-63.073
-68.639
-76.059
-79.769
-79.769
-77.914
-79.769
-79.769
-79.769
-74.204
-68.639
-68.639
-68.639
-64.929
-61.218
-59.363
-57.508
-57.508
-57.508
-53.798
-50.088
-48.233
-44.522
-42.667
-38.957
-35.247
-31.537
-25.971
-24.116
-20.406
-16.696
-12.986
-9.276
-7.42
-3.71
0
0
1.855
3.71
9.276
14.841
16.696
18.551
20.406
25.971
29.682
35.247
37.102
40.812
48.233
53.798
57.508
61.218
68.639
76.059
83.48
89.045
92.755
100.175
111.306
118.726
124.292
129.857
139.133
150.263
157.684
166.959
176.235
185.51
196.641
207.771
217.047
224.467
239.308
252.294
263.424
276.41
289.396
300.526
315.367
330.208
343.194
356.179
371.02
385.861
396.991
409.977
422.963
432.238
447.079
461.92
474.906
486.036
499.022
508.297
515.718
523.138
528.704
532.414
534.269
532.414
523.138
510.153
499.022
482.326
460.065
435.949
413.687
385.861
358.034
328.353
296.816
265.279
239.308
213.337
185.51
157.684
131.712
105.741
83.48
64.929
44.522
22.261
5.565
-9.276
-25.971
-40.812
-53.798
-66.784
-74.204
-79.769
-92.755
-102.031
-109.451
-113.161
-122.437
-128.002
-133.567
-137.277
-139.133
-139.133
-140.988
-142.843
-144.698
-144.698
-144.698
-144.698
-148.408
-153.973
-155.828
-153.973
-155.828
-157.684
-157.684
-157.684
-159.539
-159.539
-157.684
-157.684
-155.828
-153.973
-155.828
-159.539
-157.684
-155.828
-155.828
-157.684
-157.684
-157.684
-155.828
-152.118
-155.828
-155.828
-152.118
-150.263
-148.408
-146.553
-146.553
-146.553
-144.698
-140.988
-139.133
-139.133
-137.277
-133.567
-135.422
-133.567
-133.567
-133.567
-131.712
-128.002
-129.857
-131.712
-128.002
-124.292
-126.147
-126.147
-124.292
-122.437
-120.582
-118.726
-122.437
-122.437
-120.582
-120.582
-120.582
-122.437
-122.437
-120.582
-120.582
-118.726
-120.582
-118.726
-115.016
-116.871
-115.016
-115.016
-116.871
-115.016
-116.871
-116.871
-116.871
-118.726
-116.871
-118.726
-122.437
-124.292
-124.292
-124.292
-126.147
-126.147
-128.002
-131.712
-129.857
-128.002
-128.002
-128.002
-128.002
-129.857
-128.002
-126.147
-128.002
-129.857
-126.147
-126.147
-128.002
-128.002
-128.002
-128.002
-126.147
-124.292
-128.002
-129.857
-129.857
-128.002
-128.002
-126.147
-128.002
-129.857
-129.857
-129.857
-129.857
-128.002
-128.002
-129.857
-129.857
-129.857
-131.712
-135.422
-131.712
-128.002
-131.712
-133.567
-131.712
-129.857
-129.857
-128.002
-129.857
-128.002
-122.437
-120.582
-124.292
-124.292
-120.582
-118.726
-120.582
-122.437
-122.437
-124.292
-122.437
-118.726
-120.582
-122.437
